PSTAR: Stopping Powers and Range Tables for Protons

WATER, LIQUID                                                           

Kinetic   Electron. Nuclear   Total     CSDA      Projected 
Energy    Stp. Pow. Stp. Pow. Stp. Pow. Range     Range     
MeV       MeV cm2/g MeV cm2/g MeV cm2/g g/cm2     g/cm2     

3.000E+00,1.171E+02,7.972E-02,1.172E+02,1.499E-02,1.494E-02,
6.000E+00,6.854E+01,4.195E-02,6.858E+01,4.984E-02,4.972E-02,
9.000E+00,4.966E+01,2.873E-02,4.969E+01,1.020E-01,1.018E-01,
1.200E+01,3.941E+01,2.194E-02,3.943E+01,1.703E-01,1.700E-01,
1.500E+01,3.290E+01,1.778E-02,3.292E+01,2.539E-01,2.535E-01,
1.800E+01,2.838E+01,1.497E-02,2.840E+01,3.524E-01,3.517E-01,
2.100E+01,2.504E+01,1.295E-02,2.505E+01,4.651E-01,4.643E-01,
2.400E+01,2.247E+01,1.141E-02,2.248E+01,5.917E-01,5.907E-01,
2.700E+01,2.042E+01,1.021E-02,2.043E+01,7.319E-01,7.307E-01,
3.000E+01,1.875E+01,9.239E-03,1.876E+01,8.853E-01,8.839E-01,
3.300E+01,1.736E+01,8.441E-03,1.737E+01,1.052E+00,1.050E+00,
3.600E+01,1.618E+01,7.773E-03,1.619E+01,1.231E+00,1.229E+00,
3.900E+01,1.517E+01,7.205E-03,1.518E+01,1.422E+00,1.420E+00,
4.200E+01,1.430E+01,6.716E-03,1.431E+01,1.626E+00,1.623E+00,
4.500E+01,1.353E+01,6.290E-03,1.354E+01,1.841E+00,1.839E+00,
4.800E+01,1.285E+01,5.916E-03,1.286E+01,2.069E+00,2.066E+00,
5.100E+01,1.225E+01,5.585E-03,1.225E+01,2.308E+00,2.305E+00,
5.400E+01,1.171E+01,5.290E-03,1.171E+01,2.558E+00,2.555E+00,
5.700E+01,1.122E+01,5.025E-03,1.122E+01,2.820E+00,2.816E+00,
6.000E+01,1.078E+01,4.786E-03,1.078E+01,3.093E+00,3.089E+00,
6.300E+01,1.037E+01,4.569E-03,1.038E+01,3.377E+00,3.372E+00,
6.600E+01,1.000E+01,4.372E-03,1.001E+01,3.671E+00,3.666E+00,
6.900E+01,9.662E+00,4.191E-03,9.666E+00,3.976E+00,3.971E+00,
7.200E+01,9.349E+00,4.024E-03,9.353E+00,4.292E+00,4.286E+00,
7.500E+01,9.059E+00,3.871E-03,9.063E+00,4.618E+00,4.611E+00,
7.800E+01,8.791E+00,3.729E-03,8.794E+00,4.954E+00,4.947E+00,
8.100E+01,8.540E+00,3.598E-03,8.544E+00,5.300E+00,5.293E+00,
8.400E+01,8.307E+00,3.476E-03,8.311E+00,5.656E+00,5.648E+00,
8.700E+01,8.089E+00,3.361E-03,8.092E+00,6.022E+00,6.014E+00,
9.000E+01,7.884E+00,3.255E-03,7.888E+00,6.398E+00,6.389E+00,
9.300E+01,7.692E+00,3.155E-03,7.695E+00,6.783E+00,6.773E+00,
9.600E+01,7.511E+00,3.061E-03,7.514E+00,7.177E+00,7.167E+00,
9.900E+01,7.341E+00,2.973E-03,7.344E+00,7.581E+00,7.571E+00,
1.020E+02,7.180E+00,2.889E-03,7.183E+00,7.994E+00,7.983E+00,
1.050E+02,7.027E+00,2.811E-03,7.030E+00,8.416E+00,8.405E+00,
1.080E+02,6.883E+00,2.736E-03,6.886E+00,8.848E+00,8.836E+00,
1.110E+02,6.746E+00,2.666E-03,6.749E+00,9.288E+00,9.275E+00,
1.140E+02,6.616E+00,2.599E-03,6.619E+00,9.737E+00,9.724E+00,
1.170E+02,6.492E+00,2.536E-03,6.495E+00,1.019E+01,1.018E+01,
1.200E+02,6.374E+00,2.475E-03,6.377E+00,1.066E+01,1.065E+01,
1.230E+02,6.262E+00,2.418E-03,6.264E+00,1.114E+01,1.112E+01,
1.260E+02,6.154E+00,2.363E-03,6.157E+00,1.162E+01,1.160E+01,
1.290E+02,6.052E+00,2.311E-03,6.054E+00,1.211E+01,1.209E+01,
1.320E+02,5.953E+00,2.261E-03,5.956E+00,1.261E+01,1.259E+01,
1.350E+02,5.859E+00,2.213E-03,5.861E+00,1.312E+01,1.310E+01,
1.380E+02,5.769E+00,2.167E-03,5.771E+00,1.363E+01,1.362E+01,
1.410E+02,5.683E+00,2.123E-03,5.685E+00,1.416E+01,1.414E+01,
1.440E+02,5.599E+00,2.081E-03,5.602E+00,1.469E+01,1.467E+01,
1.470E+02,5.520E+00,2.040E-03,5.522E+00,1.523E+01,1.521E+01,
1.500E+02,5.443E+00,2.001E-03,5.445E+00,1.577E+01,1.576E+01,
1.530E+02,5.369E+00,1.964E-03,5.371E+00,1.633E+01,1.631E+01,
1.560E+02,5.298E+00,1.928E-03,5.300E+00,1.689E+01,1.687E+01,
1.590E+02,5.229E+00,1.893E-03,5.231E+00,1.746E+01,1.744E+01,
1.620E+02,5.163E+00,1.860E-03,5.165E+00,1.804E+01,1.802E+01,
1.650E+02,5.099E+00,1.828E-03,5.101E+00,1.862E+01,1.860E+01,
1.680E+02,5.037E+00,1.797E-03,5.039E+00,1.922E+01,1.919E+01,
1.710E+02,4.978E+00,1.767E-03,4.979E+00,1.981E+01,1.979E+01,
1.740E+02,4.920E+00,1.738E-03,4.922E+00,2.042E+01,2.040E+01,
1.770E+02,4.864E+00,1.710E-03,4.866E+00,2.103E+01,2.101E+01,
1.800E+02,4.810E+00,1.683E-03,4.812E+00,2.165E+01,2.163E+01,
1.830E+02,4.758E+00,1.656E-03,4.760E+00,2.228E+01,2.225E+01,
1.860E+02,4.707E+00,1.631E-03,4.709E+00,2.291E+01,2.289E+01,
1.890E+02,4.658E+00,1.606E-03,4.660E+00,2.355E+01,2.353E+01,
1.920E+02,4.611E+00,1.582E-03,4.612E+00,2.420E+01,2.417E+01,
1.950E+02,4.565E+00,1.559E-03,4.566E+00,2.485E+01,2.483E+01,
1.980E+02,4.520E+00,1.537E-03,4.521E+00,2.552E+01,2.548E+01,
2.010E+02,4.476E+00,1.515E-03,4.478E+00,2.618E+01,2.615E+01,
2.040E+02,4.434E+00,1.494E-03,4.435E+00,2.686E+01,2.682E+01,
2.070E+02,4.393E+00,1.473E-03,4.394E+00,2.753E+01,2.750E+01,
2.100E+02,4.353E+00,1.453E-03,4.354E+00,2.822E+01,2.819E+01,
2.130E+02,4.314E+00,1.433E-03,4.315E+00,2.891E+01,2.888E+01,
2.160E+02,4.276E+00,1.414E-03,4.278E+00,2.961E+01,2.958E+01,
2.190E+02,4.239E+00,1.396E-03,4.241E+00,3.032E+01,3.028E+01,
2.220E+02,4.204E+00,1.378E-03,4.205E+00,3.103E+01,3.099E+01,
2.250E+02,4.169E+00,1.361E-03,4.170E+00,3.174E+01,3.171E+01,
2.280E+02,4.135E+00,1.344E-03,4.136E+00,3.246E+01,3.243E+01,
2.310E+02,4.101E+00,1.327E-03,4.103E+00,3.319E+01,3.315E+01,
2.340E+02,4.069E+00,1.311E-03,4.070E+00,3.393E+01,3.389E+01,
2.370E+02,4.038E+00,1.295E-03,4.039E+00,3.467E+01,3.463E+01,
2.400E+02,4.007E+00,1.279E-03,4.008E+00,3.541E+01,3.537E+01,
2.430E+02,3.977E+00,1.264E-03,3.978E+00,3.616E+01,3.612E+01,
2.460E+02,3.948E+00,1.250E-03,3.949E+00,3.692E+01,3.688E+01,
2.490E+02,3.919E+00,1.235E-03,3.920E+00,3.768E+01,3.764E+01,